#
# Neutron Star Mass Function
#
# Source: www3.mpifr-bonn.mpg.de/staff/pfreire/NS_masses.html
#         neutron stars in binary systems with mass error < 15%
#
# ARAA article: Ozel, F., and Freire, P. 2016, "Masses, radii,
#               and the equation of state of neutron stars," ARAA, 54, 401
#
# PDF calculated using Kernel Density Estimation (KDE) by author BSR
#
# Mass is in Msun
# PDF - probability density function, dimensionless 0..1
# lower98/upper98 - 98% confidence intervals
#
Mass          PDF          lower98      upper98
  0.2600E-02  0.28858E-16  0.21493E-25  0.11539E-15
  0.7800E-02  0.29752E-16  0.23784E-25  0.11896E-15
  0.1300E-01  0.31567E-16  0.28601E-25  0.12621E-15
  0.1820E-01  0.34354E-16  0.36439E-25  0.13736E-15
  0.2340E-01  0.38196E-16  0.48099E-25  0.15271E-15
  0.2860E-01  0.43203E-16  0.64770E-25  0.17273E-15
  0.3380E-01  0.49522E-16  0.88141E-25  0.19799E-15
  0.3900E-01  0.57334E-16  0.12057E-24  0.22921E-15
  0.4420E-01  0.66865E-16  0.16532E-24  0.26731E-15
  0.4940E-01  0.78389E-16  0.22685E-24  0.31337E-15
  0.5460E-01  0.92234E-16  0.31126E-24  0.36870E-15
  0.5980E-01  0.10879E-15  0.42689E-24  0.43489E-15
  0.6500E-01  0.12854E-15  0.58507E-24  0.51380E-15
  0.7020E-01  0.15202E-15  0.80122E-24  0.60766E-15
  0.7540E-01  0.17991E-15  0.10963E-23  0.71910E-15
  0.8060E-01  0.21297E-15  0.14987E-23  0.85122E-15
  0.8580E-01  0.25213E-15  0.20469E-23  0.10077E-14
  0.9100E-01  0.29847E-15  0.27931E-23  0.11928E-14
  0.9620E-01  0.35326E-15  0.38078E-23  0.14117E-14
  0.1014      0.41799E-15  0.51863E-23  0.16704E-14
  0.1066      0.49444E-15  0.70574E-23  0.19758E-14
  0.1118      0.58466E-15  0.95945E-23  0.23362E-14
  0.1170      0.69108E-15  0.13032E-22  0.27613E-14
  0.1222      0.81655E-15  0.17684E-22  0.32625E-14
  0.1274      0.96440E-15  0.23975E-22  0.38531E-14
  0.1326      0.11385E-14  0.32473E-22  0.45486E-14
  0.1378      0.13436E-14  0.43944E-22  0.53674E-14
  0.1430      0.15848E-14  0.59411E-22  0.63309E-14
  0.1482      0.18686E-14  0.80247E-22  0.74641E-14
  0.1534      0.22023E-14  0.10829E-21  0.87963E-14
  0.1586      0.25943E-14  0.14600E-21  0.10362E-13
  0.1638      0.30549E-14  0.19666E-21  0.12200E-13
  0.1690      0.35956E-14  0.26465E-21  0.14359E-13
  0.1742      0.42302E-14  0.35581E-21  0.16892E-13
  0.1794      0.49747E-14  0.47794E-21  0.19863E-13
  0.1846      0.58476E-14  0.64138E-21  0.23346E-13
  0.1898      0.68706E-14  0.85993E-21  0.27429E-13
  0.1950      0.80692E-14  0.11519E-20  0.32210E-13
  0.2002      0.94726E-14  0.15415E-20  0.37809E-13
  0.2054      0.11115E-13  0.20610E-20  0.44362E-13
  0.2106      0.13038E-13  0.27531E-20  0.52027E-13
  0.2158      0.15285E-13  0.36742E-20  0.60989E-13
  0.2210      0.17913E-13  0.48988E-20  0.71465E-13
  0.2262      0.20984E-13  0.65257E-20  0.83703E-13
  0.2314      0.24570E-13  0.86847E-20  0.97993E-13
  0.2366      0.28757E-13  0.11547E-19  0.11467E-12
  0.2418      0.33645E-13  0.15339E-19  0.13413E-12
  0.2470      0.39346E-13  0.20358E-19  0.15683E-12
  0.2522      0.45996E-13  0.26993E-19  0.18329E-12
  0.2574      0.53749E-13  0.35759E-19  0.21412E-12
  0.2626      0.62785E-13  0.47326E-19  0.25003E-12
  0.2678      0.73314E-13  0.62578E-19  0.29183E-12
  0.2730      0.85580E-13  0.82669E-19  0.34049E-12
  0.2782      0.99866E-13  0.10911E-18  0.39710E-12
  0.2834      0.11650E-12  0.14387E-18  0.46293E-12
  0.2886      0.13588E-12  0.18954E-18  0.53945E-12
  0.2938      0.15844E-12  0.24946E-18  0.62838E-12
  0.2990      0.18472E-12  0.32804E-18  0.73150E-12
  0.3042      0.21534E-12  0.43096E-18  0.85115E-12
  0.3094      0.25104E-12  0.56566E-18  0.98994E-12
  0.3146      0.29267E-12  0.74177E-18  0.11511E-11
  0.3198      0.34127E-12  0.97183E-18  0.13386E-11
  0.3250      0.39808E-12  0.12720E-17  0.15562E-11
  0.3302      0.46456E-12  0.16635E-17  0.18089E-11
  0.3354      0.54252E-12  0.21734E-17  0.21022E-11
  0.3406      0.63413E-12  0.28370E-17  0.24430E-11
  0.3458      0.74207E-12  0.36999E-17  0.28389E-11
  0.3510      0.86966E-12  0.48208E-17  0.32992E-11
  0.3562      0.10210E-11  0.62755E-17  0.38349E-11
  0.3614      0.12014E-11  0.81616E-17  0.44589E-11
  0.3666      0.14173E-11  0.10605E-16  0.51867E-11
  0.3718      0.16773E-11  0.13767E-16  0.60370E-11
  0.3770      0.19921E-11  0.17856E-16  0.70325E-11
  0.3822      0.23760E-11  0.23139E-16  0.82005E-11
  0.3874      0.28471E-11  0.29956E-16  0.95750E-11
  0.3926      0.34298E-11  0.38747E-16  0.11197E-10
  0.3978      0.41555E-11  0.50073E-16  0.13121E-10
  0.4030      0.50664E-11  0.64651E-16  0.15448E-10
  0.4082      0.62180E-11  0.83397E-16  0.18498E-10
  0.4134      0.76841E-11  0.10748E-15  0.22866E-10
  0.4186      0.95629E-11  0.13840E-15  0.27428E-10
  0.4238      0.11986E-10  0.17805E-15  0.35468E-10
  0.4290      0.15126E-10  0.22885E-15  0.44200E-10
  0.4342      0.19218E-10  0.29388E-15  0.55033E-10
  0.4394      0.24570E-10  0.37705E-15  0.73406E-10
  0.4446      0.31596E-10  0.48333E-15  0.94425E-10
  0.4498      0.40845E-10  0.61902E-15  0.12567E-09
  0.4550      0.53046E-10  0.79210E-15  0.16884E-09
  0.4602      0.69170E-10  0.10127E-14  0.22686E-09
  0.4654      0.90500E-10  0.12935E-14  0.30477E-09
  0.4706      0.11874E-09  0.16508E-14  0.40924E-09
  0.4758      0.15612E-09  0.21050E-14  0.54909E-09
  0.4810      0.20562E-09  0.26817E-14  0.72770E-09
  0.4862      0.27112E-09  0.34134E-14  0.95529E-09
  0.4914      0.35775E-09  0.43411E-14  0.12830E-08
  0.4966      0.47219E-09  0.55161E-14  0.17193E-08
  0.5018      0.62320E-09  0.70031E-14  0.22990E-08
  0.5070      0.82224E-09  0.88833E-14  0.30672E-08
  0.5122      0.10842E-08  0.11259E-13  0.40831E-08
  0.5174      0.14283E-08  0.14257E-13  0.54234E-08
  0.5226      0.18796E-08  0.18039E-13  0.71876E-08
  0.5278      0.24706E-08  0.22805E-13  0.95045E-08
  0.5330      0.32430E-08  0.28806E-13  0.12540E-07
  0.5382      0.42503E-08  0.36356E-13  0.16509E-07
  0.5434      0.55617E-08  0.45846E-13  0.21685E-07
  0.5486      0.72653E-08  0.57768E-13  0.28421E-07
  0.5538      0.94738E-08  0.72729E-13  0.37166E-07
  0.5590      0.12331E-07  0.91491E-13  0.48493E-07
  0.5642      0.16019E-07  0.11503E-12  0.63131E-07
  0.5694      0.20770E-07  0.14500E-12  0.82004E-07
  0.5746      0.26876E-07  0.18269E-12  0.10628E-06
  0.5798      0.34707E-07  0.23004E-12  0.13744E-06
  0.5850      0.44728E-07  0.28952E-12  0.17733E-06
  0.5902      0.57523E-07  0.36420E-12  0.22829E-06
  0.5954      0.73821E-07  0.45792E-12  0.29324E-06
  0.6006      0.94537E-07  0.57601E-12  0.37583E-06
  0.6058      0.12081E-06  0.72821E-12  0.48060E-06
  0.6110      0.15405E-06  0.92236E-12  0.61320E-06
  0.6162      0.19600E-06  0.11712E-11  0.78064E-06
  0.6214      0.24885E-06  0.14918E-11  0.99157E-06
  0.6266      0.31525E-06  0.19078E-11  0.12567E-05
  0.6318      0.39851E-06  0.24515E-11  0.15891E-05
  0.6370      0.50264E-06  0.31684E-11  0.20050E-05
  0.6422      0.63258E-06  0.41225E-11  0.25240E-05
  0.6474      0.79437E-06  0.54051E-11  0.31704E-05
  0.6526      0.99532E-06  0.68824E-11  0.39732E-05
  0.6578      0.12444E-05  0.91740E-11  0.49684E-05
  0.6630      0.15523E-05  0.11848E-10  0.61988E-05
  0.6682      0.19321E-05  0.15062E-10  0.77166E-05
  0.6734      0.23994E-05  0.20444E-10  0.95846E-05
  0.6786      0.29733E-05  0.28356E-10  0.11878E-04
  0.6838      0.36761E-05  0.40979E-10  0.14688E-04
  0.6890      0.45350E-05  0.59547E-10  0.18121E-04
  0.6942      0.55821E-05  0.86408E-10  0.22307E-04
  0.6994      0.68557E-05  0.11804E-09  0.27398E-04
  0.7046      0.84010E-05  0.16230E-09  0.33577E-04
  0.7098      0.10272E-04  0.20744E-09  0.41056E-04
  0.7150      0.12531E-04  0.25721E-09  0.50089E-04
  0.7202      0.15253E-04  0.32091E-09  0.60973E-04
  0.7254      0.18525E-04  0.40333E-09  0.74056E-04
  0.7306      0.22449E-04  0.51116E-09  0.89744E-04
  0.7358      0.27143E-04  0.72981E-09  0.10851E-03
  0.7410      0.32746E-04  0.10290E-08  0.13091E-03
  0.7462      0.39416E-04  0.14866E-08  0.15759E-03
  0.7514      0.47340E-04  0.20198E-08  0.18927E-03
  0.7566      0.56729E-04  0.24038E-08  0.22681E-03
  0.7618      0.67829E-04  0.34628E-08  0.27120E-03
  0.7670      0.80921E-04  0.43703E-08  0.32354E-03
  0.7722      0.96324E-04  0.55343E-08  0.38512E-03
  0.7774      0.11440E-03  0.71197E-08  0.45739E-03
  0.7826      0.13557E-03  0.97221E-08  0.54202E-03
  0.7878      0.16030E-03  0.12641E-07  0.64086E-03
  0.7930      0.18912E-03  0.17625E-07  0.75602E-03
  0.7982      0.22263E-03  0.24440E-07  0.88990E-03
  0.8034      0.26149E-03  0.31395E-07  0.10452E-02
  0.8086      0.30645E-03  0.42158E-07  0.12247E-02
  0.8138      0.35835E-03  0.56862E-07  0.14320E-02
  0.8190      0.41811E-03  0.78679E-07  0.16706E-02
  0.8242      0.48676E-03  0.10953E-06  0.19445E-02
  0.8294      0.56545E-03  0.14551E-06  0.22584E-02
  0.8346      0.65541E-03  0.20187E-06  0.26171E-02
  0.8398      0.75803E-03  0.27120E-06  0.30260E-02
  0.8450      0.87481E-03  0.35381E-06  0.34911E-02
  0.8502      0.10074E-02  0.46143E-06  0.40186E-02
  0.8554      0.11576E-02  0.61151E-06  0.46156E-02
  0.8606      0.13273E-02  0.83652E-06  0.52896E-02
  0.8658      0.15187E-02  0.11119E-05  0.60486E-02
  0.8710      0.17340E-02  0.15377E-05  0.69012E-02
  0.8762      0.19757E-02  0.20940E-05  0.78567E-02
  0.8814      0.22465E-02  0.27271E-05  0.89247E-02
  0.8866      0.25491E-02  0.36499E-05  0.10116E-01
  0.8918      0.28868E-02  0.49062E-05  0.11441E-01
  0.8970      0.32627E-02  0.66093E-05  0.12911E-01
  0.9022      0.36804E-02  0.89319E-05  0.14539E-01
  0.9074      0.41437E-02  0.12028E-04  0.16337E-01
  0.9126      0.46568E-02  0.16166E-04  0.18317E-01
  0.9178      0.52239E-02  0.21702E-04  0.20494E-01
  0.9230      0.58499E-02  0.29083E-04  0.22881E-01
  0.9282      0.65400E-02  0.38888E-04  0.25493E-01
  0.9334      0.72997E-02  0.51864E-04  0.28344E-01
  0.9386      0.81352E-02  0.68971E-04  0.31448E-01
  0.9438      0.90533E-02  0.91433E-04  0.34822E-01
  0.9490      0.10061E-01  0.12041E-03  0.38480E-01
  0.9542      0.11167E-01  0.15803E-03  0.42438E-01
  0.9594      0.12381E-01  0.20668E-03  0.46713E-01
  0.9646      0.13712E-01  0.26931E-03  0.51320E-01
  0.9698      0.15172E-01  0.34007E-03  0.56284E-01
  0.9750      0.16775E-01  0.43749E-03  0.61623E-01
  0.9802      0.18534E-01  0.56017E-03  0.67353E-01
  0.9854      0.20466E-01  0.71611E-03  0.73493E-01
  0.9906      0.22591E-01  0.91181E-03  0.80065E-01
  0.9958      0.24929E-01  0.11520E-02  0.87062E-01
   1.001      0.27504E-01  0.14607E-02  0.94502E-01
   1.006      0.30345E-01  0.18429E-02  0.10242    
   1.011      0.33482E-01  0.23034E-02  0.11084    
   1.017      0.36951E-01  0.28757E-02  0.11979    
   1.022      0.40791E-01  0.35762E-02  0.12929    
   1.027      0.45045E-01  0.44304E-02  0.13937    
   1.032      0.49765E-01  0.54677E-02  0.15005    
   1.037      0.55006E-01  0.67225E-02  0.16138    
   1.043      0.60828E-01  0.82344E-02  0.17349    
   1.048      0.67299E-01  0.10049E-01  0.18636    
   1.053      0.74495E-01  0.12136E-01  0.20004    
   1.058      0.82498E-01  0.14506E-01  0.21485    
   1.063      0.91395E-01  0.17407E-01  0.23035    
   1.069      0.10128      0.20530E-01  0.24652    
   1.074      0.11227      0.24457E-01  0.26445    
   1.079      0.12446      0.29072E-01  0.28662    
   1.084      0.13797      0.34428E-01  0.30842    
   1.089      0.15293      0.41108E-01  0.33359    
   1.095      0.16948      0.48516E-01  0.36031    
   1.100      0.18774      0.57078E-01  0.38770    
   1.105      0.20787      0.66937E-01  0.42111    
   1.110      0.23000      0.78248E-01  0.45066    
   1.115      0.25430      0.90568E-01  0.48962    
   1.121      0.28090      0.10363      0.53062    
   1.126      0.30998      0.11893      0.56932    
   1.131      0.34167      0.13504      0.61402    
   1.136      0.37614      0.15379      0.66362    
   1.141      0.41353      0.17487      0.71827    
   1.147      0.45399      0.19598      0.77561    
   1.152      0.49765      0.22311      0.84026    
   1.157      0.54464      0.25132      0.90557    
   1.162      0.59508      0.27834      0.97018    
   1.167      0.64907      0.31636       1.0569    
   1.173      0.70668      0.35308       1.1364    
   1.178      0.76800      0.38664       1.2177    
   1.183      0.83305      0.43246       1.3011    
   1.188      0.90185      0.48453       1.3943    
   1.193      0.97440      0.54161       1.4861    
   1.199       1.0506      0.59327       1.5799    
   1.204       1.1305      0.64777       1.6736    
   1.209       1.2138      0.70716       1.7745    
   1.214       1.3005      0.77208       1.8784    
   1.219       1.3902      0.84911       1.9809    
   1.225       1.4828      0.91997       2.0846    
   1.230       1.5779       1.0004       2.1889    
   1.235       1.6750       1.0808       2.3079    
   1.240       1.7739       1.1656       2.4199    
   1.245       1.8740       1.2543       2.5339    
   1.251       1.9747       1.3321       2.6395    
   1.256       2.0754       1.4184       2.7610    
   1.261       2.1754       1.5068       2.8663    
   1.266       2.2741       1.5888       2.9736    
   1.271       2.3707       1.6587       3.0850    
   1.277       2.4644       1.7468       3.1913    
   1.282       2.5544       1.8300       3.2900    
   1.287       2.6399       1.9182       3.3924    
   1.292       2.7201       2.0009       3.4733    
   1.297       2.7942       2.0818       3.5542    
   1.303       2.8615       2.1360       3.6349    
   1.308       2.9212       2.1811       3.7031    
   1.313       2.9728       2.2315       3.7654    
   1.318       3.0155       2.2757       3.8089    
   1.323       3.0491       2.2952       3.8341    
   1.329       3.0731       2.3069       3.8642    
   1.334       3.0873       2.3219       3.8748    
   1.339       3.0916       2.3304       3.8901    
   1.344       3.0859       2.3365       3.8992    
   1.349       3.0703       2.3368       3.8809    
   1.355       3.0453       2.3111       3.8432    
   1.360       3.0110       2.2890       3.8043    
   1.365       2.9680       2.2534       3.7452    
   1.370       2.9169       2.2062       3.6702    
   1.375       2.8584       2.1554       3.5951    
   1.381       2.7932       2.1025       3.5068    
   1.386       2.7221       2.0552       3.4082    
   1.391       2.6459       1.9861       3.3171    
   1.396       2.5657       1.9289       3.2297    
   1.401       2.4821       1.8659       3.1331    
   1.407       2.3962       1.7954       3.0299    
   1.412       2.3087       1.7134       2.9337    
   1.417       2.2204       1.6317       2.8246    
   1.422       2.1322       1.5625       2.7246    
   1.427       2.0446       1.4883       2.6353    
   1.433       1.9583       1.4208       2.5386    
   1.438       1.8739       1.3488       2.4418    
   1.443       1.7917       1.2751       2.3602    
   1.448       1.7123       1.2054       2.2778    
   1.453       1.6358       1.1365       2.2021    
   1.459       1.5626       1.0813       2.1123    
   1.464       1.4927       1.0076       2.0298    
   1.469       1.4264      0.95130       1.9492    
   1.474       1.3636      0.89778       1.8775    
   1.479       1.3043      0.84017       1.8147    
   1.485       1.2485      0.79412       1.7517    
   1.490       1.1962      0.76828       1.6910    
   1.495       1.1471      0.72189       1.6355    
   1.500       1.1011      0.68776       1.5776    
   1.505       1.0582      0.64695       1.5254    
   1.511       1.0181      0.60835       1.4818    
   1.516      0.98074      0.57397       1.4305    
   1.521      0.94586      0.54512       1.3983    
   1.526      0.91334      0.52220       1.3576    
   1.531      0.88301      0.49753       1.3228    
   1.537      0.85473      0.47658       1.2893    
   1.542      0.82835      0.46125       1.2569    
   1.547      0.80374      0.44308       1.2259    
   1.552      0.78077      0.43392       1.2089    
   1.557      0.75932      0.42455       1.1751    
   1.563      0.73929      0.40663       1.1521    
   1.568      0.72057      0.39137       1.1245    
   1.573      0.70307      0.37915       1.0928    
   1.578      0.68671      0.36313       1.0753    
   1.583      0.67141      0.35150       1.0458    
   1.589      0.65708      0.34312       1.0341    
   1.594      0.64367      0.33374       1.0200    
   1.599      0.63111      0.32024       1.0095    
   1.604      0.61933      0.31163      0.99694    
   1.609      0.60828      0.29926      0.98125    
   1.615      0.59790      0.29079      0.96901    
   1.620      0.58815      0.28355      0.95928    
   1.625      0.57896      0.27488      0.95127    
   1.630      0.57029      0.26626      0.94692    
   1.635      0.56210      0.26100      0.94082    
   1.641      0.55434      0.25824      0.93151    
   1.646      0.54697      0.25216      0.91932    
   1.651      0.53995      0.24370      0.90828    
   1.656      0.53324      0.23652      0.89705    
   1.661      0.52680      0.23002      0.88566    
   1.667      0.52061      0.22522      0.87649    
   1.672      0.51463      0.22444      0.86827    
   1.677      0.50883      0.22076      0.85997    
   1.682      0.50318      0.21732      0.85165    
   1.687      0.49767      0.21359      0.84322    
   1.693      0.49225      0.21273      0.83372    
   1.698      0.48692      0.20658      0.82579    
   1.703      0.48166      0.20393      0.81753    
   1.708      0.47645      0.20154      0.80871    
   1.713      0.47126      0.20064      0.79974    
   1.719      0.46610      0.19724      0.79164    
   1.724      0.46095      0.19501      0.78393    
   1.729      0.45579      0.19112      0.77369    
   1.734      0.45063      0.18792      0.76419    
   1.739      0.44545      0.18378      0.75866    
   1.745      0.44025      0.18048      0.74949    
   1.750      0.43503      0.17723      0.74261    
   1.755      0.42977      0.17428      0.73329    
   1.760      0.42449      0.17190      0.71924    
   1.765      0.41918      0.17195      0.70812    
   1.771      0.41384      0.17211      0.70025    
   1.776      0.40847      0.16727      0.69230    
   1.781      0.40307      0.16364      0.68118    
   1.786      0.39764      0.16135      0.67256    
   1.791      0.39220      0.15805      0.66486    
   1.797      0.38674      0.15489      0.65740    
   1.802      0.38126      0.15187      0.65094    
   1.807      0.37577      0.14950      0.64022    
   1.812      0.37028      0.14812      0.62926    
   1.817      0.36478      0.14727      0.61892    
   1.823      0.35928      0.14465      0.61294    
   1.828      0.35379      0.14001      0.60474    
   1.833      0.34831      0.13643      0.59768    
   1.838      0.34284      0.13426      0.59057    
   1.843      0.33739      0.13220      0.58083    
   1.849      0.33197      0.13023      0.57290    
   1.854      0.32657      0.12598      0.56423    
   1.859      0.32120      0.12305      0.55393    
   1.864      0.31587      0.12000      0.54356    
   1.869      0.31057      0.11398      0.53765    
   1.875      0.30532      0.10966      0.53042    
   1.880      0.30011      0.10646      0.52365    
   1.885      0.29494      0.10489      0.51694    
   1.890      0.28982      0.10182      0.51018    
   1.895      0.28475      0.97827E-01  0.50280    
   1.901      0.27973      0.93692E-01  0.49382    
   1.906      0.27477      0.89914E-01  0.48746    
   1.911      0.26986      0.86322E-01  0.48149    
   1.916      0.26501      0.83276E-01  0.47409    
   1.921      0.26022      0.79725E-01  0.46662    
   1.927      0.25548      0.76625E-01  0.46051    
   1.932      0.25080      0.73025E-01  0.45578    
   1.937      0.24618      0.71007E-01  0.45164    
   1.942      0.24162      0.69790E-01  0.44666    
