#
# White Dwarf Mass Function
# Kernel Density Estimate calculation from 1772 white dwarf masses
# Source: Kilic et al. 2020, ApJ, 898, 84, Tables 3-7
#
# PDF computed using Kernel Density Estimation (KDE) by author BSR
#
# Masses are in Msun
# PDF - probability density function, dimensionless 0..1
# lower98/upper98 - 98% confidence intervals
#
Mass          PDF          lower98      upper98
  0.1500E-02  0.22927E-03  0.94631E-04  0.35864E-03
  0.4500E-02  0.23194E-03  0.95865E-04  0.36270E-03
  0.7500E-02  0.23730E-03  0.98345E-04  0.37085E-03
  0.1050E-01  0.24539E-03  0.10209E-03  0.38315E-03
  0.1350E-01  0.25628E-03  0.10715E-03  0.39970E-03
  0.1650E-01  0.27006E-03  0.11357E-03  0.42062E-03
  0.1950E-01  0.28683E-03  0.12140E-03  0.44607E-03
  0.2250E-01  0.30673E-03  0.13073E-03  0.47624E-03
  0.2550E-01  0.32991E-03  0.14164E-03  0.51136E-03
  0.2850E-01  0.35656E-03  0.15424E-03  0.55168E-03
  0.3150E-01  0.38687E-03  0.16864E-03  0.59749E-03
  0.3450E-01  0.42107E-03  0.18498E-03  0.64913E-03
  0.3750E-01  0.45942E-03  0.20341E-03  0.70479E-03
  0.4050E-01  0.50220E-03  0.22410E-03  0.76826E-03
  0.4350E-01  0.54972E-03  0.24752E-03  0.83931E-03
  0.4650E-01  0.60231E-03  0.27368E-03  0.91839E-03
  0.4950E-01  0.66035E-03  0.30277E-03  0.10055E-02
  0.5250E-01  0.72422E-03  0.33504E-03  0.11013E-02
  0.5550E-01  0.79435E-03  0.37076E-03  0.12063E-02
  0.5850E-01  0.87121E-03  0.41023E-03  0.13212E-02
  0.6150E-01  0.95529E-03  0.45377E-03  0.14451E-02
  0.6450E-01  0.10471E-02  0.50174E-03  0.15800E-02
  0.6750E-01  0.11473E-02  0.55449E-03  0.17266E-02
  0.7050E-01  0.12563E-02  0.61245E-03  0.18857E-02
  0.7350E-01  0.13749E-02  0.67604E-03  0.20583E-02
  0.7650E-01  0.15037E-02  0.74573E-03  0.22451E-02
  0.7950E-01  0.16435E-02  0.82202E-03  0.24472E-02
  0.8250E-01  0.17949E-02  0.90544E-03  0.26654E-02
  0.8550E-01  0.19589E-02  0.99655E-03  0.29008E-02
  0.8850E-01  0.21361E-02  0.10960E-02  0.31544E-02
  0.9150E-01  0.23276E-02  0.12044E-02  0.34275E-02
  0.9450E-01  0.25342E-02  0.13224E-02  0.37210E-02
  0.9750E-01  0.27569E-02  0.14507E-02  0.40363E-02
  0.1005      0.29968E-02  0.15925E-02  0.43746E-02
  0.1035      0.32548E-02  0.17478E-02  0.47371E-02
  0.1065      0.35321E-02  0.19164E-02  0.51253E-02
  0.1095      0.38297E-02  0.20994E-02  0.55408E-02
  0.1125      0.41490E-02  0.22976E-02  0.59861E-02
  0.1155      0.44911E-02  0.25073E-02  0.64615E-02
  0.1185      0.48572E-02  0.27251E-02  0.69686E-02
  0.1215      0.52488E-02  0.29594E-02  0.75261E-02
  0.1245      0.56671E-02  0.32137E-02  0.81213E-02
  0.1275      0.61135E-02  0.34954E-02  0.87560E-02
  0.1305      0.65894E-02  0.37983E-02  0.94323E-02
  0.1335      0.70962E-02  0.41238E-02  0.10152E-01
  0.1365      0.76355E-02  0.44733E-02  0.10917E-01
  0.1395      0.82087E-02  0.48480E-02  0.11716E-01
  0.1425      0.88174E-02  0.52458E-02  0.12531E-01
  0.1455      0.94630E-02  0.56656E-02  0.13392E-01
  0.1485      0.10147E-01  0.61135E-02  0.14298E-01
  0.1515      0.10871E-01  0.66026E-02  0.15253E-01
  0.1545      0.11637E-01  0.71383E-02  0.16258E-01
  0.1575      0.12446E-01  0.77088E-02  0.17313E-01
  0.1605      0.13300E-01  0.83020E-02  0.18423E-01
  0.1635      0.14200E-01  0.89327E-02  0.19623E-01
  0.1665      0.15148E-01  0.96025E-02  0.20883E-01
  0.1695      0.16145E-01  0.10313E-01  0.22204E-01
  0.1725      0.17193E-01  0.11066E-01  0.23588E-01
  0.1755      0.18293E-01  0.11849E-01  0.25036E-01
  0.1785      0.19446E-01  0.12658E-01  0.26539E-01
  0.1815      0.20654E-01  0.13510E-01  0.28074E-01
  0.1845      0.21918E-01  0.14407E-01  0.29672E-01
  0.1875      0.23240E-01  0.15350E-01  0.31377E-01
  0.1905      0.24619E-01  0.16373E-01  0.33150E-01
  0.1935      0.26058E-01  0.17402E-01  0.34993E-01
  0.1965      0.27557E-01  0.18480E-01  0.36906E-01
  0.1995      0.29117E-01  0.19610E-01  0.38890E-01
  0.2025      0.30739E-01  0.20802E-01  0.40944E-01
  0.2055      0.32422E-01  0.22048E-01  0.43070E-01
  0.2085      0.34169E-01  0.23347E-01  0.45266E-01
  0.2115      0.35978E-01  0.24702E-01  0.47559E-01
  0.2145      0.37850E-01  0.26087E-01  0.50070E-01
  0.2175      0.39784E-01  0.27497E-01  0.52576E-01
  0.2205      0.41782E-01  0.28988E-01  0.55074E-01
  0.2235      0.43842E-01  0.30548E-01  0.57640E-01
  0.2265      0.45964E-01  0.32070E-01  0.60274E-01
  0.2295      0.48147E-01  0.33699E-01  0.62973E-01
  0.2325      0.50391E-01  0.35461E-01  0.65737E-01
  0.2355      0.52694E-01  0.37081E-01  0.68692E-01
  0.2385      0.55055E-01  0.38899E-01  0.71769E-01
  0.2415      0.57473E-01  0.40700E-01  0.74917E-01
  0.2445      0.59946E-01  0.42593E-01  0.78134E-01
  0.2475      0.62472E-01  0.44540E-01  0.81417E-01
  0.2505      0.65051E-01  0.46539E-01  0.84763E-01
  0.2535      0.67678E-01  0.48591E-01  0.88037E-01
  0.2565      0.70353E-01  0.50694E-01  0.91231E-01
  0.2595      0.73073E-01  0.52768E-01  0.94821E-01
  0.2625      0.75835E-01  0.54782E-01  0.98464E-01
  0.2655      0.78637E-01  0.56904E-01  0.10215    
  0.2685      0.81476E-01  0.59240E-01  0.10589    
  0.2715      0.84349E-01  0.61478E-01  0.10965    
  0.2745      0.87254E-01  0.63425E-01  0.11337    
  0.2775      0.90186E-01  0.65382E-01  0.11686    
  0.2805      0.93143E-01  0.67511E-01  0.12080    
  0.2835      0.96123E-01  0.69726E-01  0.12465    
  0.2865      0.99121E-01  0.71964E-01  0.12844    
  0.2895      0.10213      0.74223E-01  0.13223    
  0.2925      0.10516      0.76502E-01  0.13581    
  0.2955      0.10820      0.78801E-01  0.13939    
  0.2985      0.11124      0.81117E-01  0.14314    
  0.3015      0.11429      0.83450E-01  0.14700    
  0.3045      0.11733      0.85799E-01  0.15085    
  0.3075      0.12038      0.88163E-01  0.15467    
  0.3105      0.12342      0.90542E-01  0.15848    
  0.3135      0.12645      0.92936E-01  0.16215    
  0.3165      0.12948      0.95344E-01  0.16575    
  0.3195      0.13249      0.97766E-01  0.16931    
  0.3225      0.13550      0.10020      0.17283    
  0.3255      0.13849      0.10266      0.17645    
  0.3285      0.14147      0.10530      0.18018    
  0.3315      0.14443      0.10804      0.18389    
  0.3345      0.14739      0.11083      0.18742    
  0.3375      0.15032      0.11367      0.19027    
  0.3405      0.15325      0.11657      0.19305    
  0.3435      0.15616      0.11867      0.19578    
  0.3465      0.15906      0.12074      0.19881    
  0.3495      0.16196      0.12297      0.20219    
  0.3525      0.16485      0.12562      0.20562    
  0.3555      0.16774      0.12834      0.20902    
  0.3585      0.17063      0.13122      0.21237    
  0.3615      0.17352      0.13415      0.21570    
  0.3645      0.17643      0.13714      0.21899    
  0.3675      0.17936      0.14018      0.22226    
  0.3705      0.18231      0.14328      0.22551    
  0.3735      0.18529      0.14646      0.22868    
  0.3765      0.18831      0.14971      0.23157    
  0.3795      0.19138      0.15306      0.23519    
  0.3825      0.19451      0.15611      0.23907    
  0.3855      0.19771      0.15870      0.24287    
  0.3885      0.20099      0.16151      0.24671    
  0.3915      0.20438      0.16505      0.25061    
  0.3945      0.20789      0.16827      0.25459    
  0.3975      0.21154      0.17150      0.25868    
  0.4005      0.21534      0.17490      0.26264    
  0.4035      0.21933      0.17786      0.26725    
  0.4065      0.22354      0.18050      0.27179    
  0.4095      0.22799      0.18426      0.27656    
  0.4125      0.23273      0.18846      0.28158    
  0.4155      0.23779      0.19108      0.28821    
  0.4185      0.24323      0.19550      0.29381    
  0.4215      0.24908      0.20120      0.29961    
  0.4245      0.25541      0.20792      0.30763    
  0.4275      0.26227      0.21501      0.31620    
  0.4305      0.26975      0.22148      0.32403    
  0.4335      0.27791      0.22853      0.33268    
  0.4365      0.28683      0.23630      0.34319    
  0.4395      0.29661      0.24489      0.35449    
  0.4425      0.30733      0.25439      0.36665    
  0.4455      0.31911      0.26350      0.37979    
  0.4485      0.33206      0.27297      0.39339    
  0.4515      0.34629      0.28510      0.40959    
  0.4545      0.36193      0.29858      0.42729    
  0.4575      0.37914      0.31146      0.44661    
  0.4605      0.39805      0.32593      0.46771    
  0.4635      0.41884      0.34269      0.49076    
  0.4665      0.44169      0.36240      0.51715    
  0.4695      0.46680      0.38745      0.54571    
  0.4725      0.49439      0.41155      0.57659    
  0.4755      0.52470      0.43614      0.61271    
  0.4785      0.55802      0.46389      0.64618    
  0.4815      0.59465      0.49823      0.68612    
  0.4845      0.63494      0.53635      0.73057    
  0.4875      0.67924      0.57756      0.78339    
  0.4905      0.72801      0.62572      0.83732    
  0.4935      0.78168      0.67801      0.90486    
  0.4965      0.84077      0.72854      0.97585    
  0.4995      0.90584      0.78780       1.0423    
  0.5025      0.97743      0.85368       1.1193    
  0.5055       1.0562      0.92333       1.2115    
  0.5085       1.1427       1.0004       1.3016    
  0.5115       1.2377       1.0857       1.3999    
  0.5145       1.3417       1.1764       1.5109    
  0.5175       1.4553       1.2788       1.6340    
  0.5205       1.5790       1.3919       1.7666    
  0.5235       1.7133       1.5167       1.9102    
  0.5265       1.8585       1.6456       2.0659    
  0.5295       2.0147       1.7998       2.2321    
  0.5325       2.1819       1.9554       2.4107    
  0.5355       2.3598       2.1274       2.6079    
  0.5385       2.5481       2.3037       2.8039    
  0.5415       2.7460       2.4815       3.0182    
  0.5445       2.9524       2.6852       3.2202    
  0.5475       3.1659       2.8787       3.4335    
  0.5505       3.3850       3.0848       3.6485    
  0.5535       3.6074       3.2899       3.8820    
  0.5565       3.8309       3.5030       4.1160    
  0.5595       4.0527       3.7161       4.3634    
  0.5625       4.2696       3.9330       4.5826    
  0.5655       4.4784       4.1400       4.8014    
  0.5685       4.6756       4.3462       5.0017    
  0.5715       4.8575       4.5213       5.1904    
  0.5745       5.0206       4.6886       5.3513    
  0.5775       5.1615       4.8335       5.5004    
  0.5805       5.2772       4.9466       5.6103    
  0.5835       5.3653       5.0302       5.7130    
  0.5865       5.4239       5.0777       5.7729    
  0.5895       5.4519       5.1215       5.8096    
  0.5925       5.4492       5.1271       5.8193    
  0.5955       5.4163       5.0890       5.7831    
  0.5985       5.3548       5.0154       5.7280    
  0.6015       5.2667       4.9200       5.6498    
  0.6045       5.1550       4.8050       5.5241    
  0.6075       5.0228       4.6681       5.3851    
  0.6105       4.8736       4.5178       5.2309    
  0.6135       4.7111       4.3832       5.0579    
  0.6165       4.5388       4.2194       4.8738    
  0.6195       4.3599       4.0508       4.6999    
  0.6225       4.1774       3.8700       4.5006    
  0.6255       3.9941       3.6811       4.2973    
  0.6285       3.8120       3.4970       4.0974    
  0.6315       3.6331       3.3211       3.9124    
  0.6345       3.4587       3.1449       3.7404    
  0.6375       3.2899       2.9847       3.5683    
  0.6405       3.1277       2.8347       3.3933    
  0.6435       2.9726       2.6949       3.2331    
  0.6465       2.8249       2.5478       3.0730    
  0.6495       2.6851       2.4086       2.9356    
  0.6525       2.5532       2.2860       2.8056    
  0.6555       2.4292       2.1785       2.6724    
  0.6585       2.3132       2.0791       2.5607    
  0.6615       2.2050       1.9841       2.4600    
  0.6645       2.1044       1.8947       2.3430    
  0.6675       2.0113       1.8152       2.2430    
  0.6705       1.9253       1.7350       2.1453    
  0.6735       1.8461       1.6656       2.0644    
  0.6765       1.7735       1.6012       1.9880    
  0.6795       1.7069       1.5272       1.9221    
  0.6825       1.6460       1.4687       1.8590    
  0.6855       1.5905       1.4205       1.7938    
  0.6885       1.5399       1.3728       1.7321    
  0.6915       1.4939       1.3248       1.6734    
  0.6945       1.4522       1.2852       1.6259    
  0.6975       1.4143       1.2516       1.5841    
  0.7005       1.3800       1.2220       1.5514    
  0.7035       1.3490       1.1983       1.5196    
  0.7065       1.3211       1.1701       1.4901    
  0.7095       1.2959       1.1449       1.4535    
  0.7125       1.2732       1.1277       1.4266    
  0.7155       1.2529       1.1073       1.4012    
  0.7185       1.2347       1.0879       1.3826    
  0.7215       1.2184       1.0731       1.3630    
  0.7245       1.2039       1.0577       1.3448    
  0.7275       1.1909       1.0422       1.3277    
  0.7305       1.1793       1.0321       1.3117    
  0.7335       1.1690       1.0252       1.2965    
  0.7365       1.1597       1.0194       1.2941    
  0.7395       1.1514       1.0127       1.2830    
  0.7425       1.1440       1.0018       1.2767    
  0.7455       1.1373      0.99189       1.2744    
  0.7485       1.1312      0.98675       1.2728    
  0.7515       1.1256      0.98272       1.2644    
  0.7545       1.1205      0.97934       1.2639    
  0.7575       1.1158      0.97653       1.2518    
  0.7605       1.1114      0.97340       1.2506    
  0.7635       1.1073      0.96759       1.2516    
  0.7665       1.1033      0.96231       1.2523    
  0.7695       1.0996      0.95836       1.2526    
  0.7725       1.0961      0.95989       1.2524    
  0.7755       1.0926      0.95940       1.2512    
  0.7785       1.0893      0.95644       1.2460    
  0.7815       1.0861      0.95418       1.2402    
  0.7845       1.0830      0.95491       1.2338    
  0.7875       1.0800      0.95322       1.2269    
  0.7905       1.0770      0.95166       1.2184    
  0.7935       1.0741      0.95071       1.2115    
  0.7965       1.0712      0.95029       1.2069    
  0.7995       1.0684      0.94836       1.2026    
  0.8025       1.0656      0.94147       1.1982    
  0.8055       1.0628      0.93506       1.1920    
  0.8085       1.0600      0.93301       1.1858    
  0.8115       1.0571      0.93360       1.1824    
  0.8145       1.0541      0.93295       1.1812    
  0.8175       1.0510      0.92929       1.1788    
  0.8205       1.0478      0.92562       1.1730    
  0.8235       1.0444      0.92112       1.1689    
  0.8265       1.0407      0.91665       1.1642    
  0.8295       1.0368      0.91219       1.1589    
  0.8325       1.0326      0.90769       1.1530    
  0.8355       1.0280      0.90373       1.1476    
  0.8385       1.0230      0.90125       1.1432    
  0.8415       1.0175      0.89774       1.1384    
  0.8445       1.0116      0.89223       1.1328    
  0.8475       1.0051      0.88689       1.1274    
  0.8505      0.99803      0.88116       1.1205    
  0.8535      0.99036      0.87465       1.1103    
  0.8565      0.98206      0.86658       1.1034    
  0.8595      0.97310      0.85864       1.0935    
  0.8625      0.96347      0.84502       1.0842    
  0.8655      0.95314      0.83513       1.0761    
  0.8685      0.94212      0.82662       1.0647    
  0.8715      0.93041      0.81786       1.0522    
  0.8745      0.91801      0.80881       1.0386    
  0.8775      0.90492      0.79945       1.0230    
  0.8805      0.89118      0.78976       1.0071    
  0.8835      0.87681      0.77610      0.99163    
  0.8865      0.86183      0.76149      0.97531    
  0.8895      0.84629      0.74644      0.95815    
  0.8925      0.83021      0.73005      0.94297    
  0.8955      0.81365      0.71266      0.92629    
  0.8985      0.79666      0.69516      0.90785    
  0.9015      0.77927      0.67990      0.88873    
  0.9045      0.76156      0.66598      0.86899    
  0.9075      0.74357      0.65015      0.85109    
  0.9105      0.72536      0.63518      0.83340    
  0.9135      0.70698      0.61676      0.81494    
  0.9165      0.68849      0.59834      0.79581    
  0.9195      0.66996      0.58140      0.77608    
  0.9225      0.65142      0.56505      0.75586    
  0.9255      0.63295      0.54786      0.73342    
  0.9285      0.61458      0.53129      0.71045    
  0.9315      0.59636      0.51330      0.68763    
  0.9345      0.57834      0.49564      0.66661    
  0.9375      0.56056      0.47836      0.64275    
  0.9405      0.54306      0.46147      0.62115    
  0.9435      0.52587      0.44501      0.60049    
  0.9465      0.50902      0.42900      0.58011    
  0.9495      0.49254      0.41346      0.56167    
  0.9525      0.47646      0.39841      0.54547    
  0.9555      0.46078      0.38386      0.52674    
  0.9585      0.44552      0.36981      0.51136    
  0.9615      0.43070      0.35668      0.49650    
  0.9645      0.41633      0.34424      0.48031    
  0.9675      0.40240      0.33230      0.46565    
  0.9705      0.38892      0.32086      0.45141    
  0.9735      0.37589      0.30991      0.43759    
  0.9765      0.36331      0.29819      0.42419    
  0.9795      0.35117      0.28587      0.41120    
  0.9825      0.33947      0.27557      0.39874    
  0.9855      0.32819      0.26593      0.38647    
  0.9885      0.31733      0.25684      0.37439    
  0.9915      0.30689      0.24864      0.36218    
  0.9945      0.29683      0.24088      0.35036    
  0.9975      0.28717      0.23356      0.33892    
   1.000      0.27788      0.22638      0.32796    
   1.003      0.26895      0.21931      0.31781    
   1.007      0.26038      0.21251      0.30872    
   1.010      0.25214      0.20598      0.30008    
   1.013      0.24423      0.19908      0.29172    
   1.015      0.23664      0.19194      0.28362    
   1.018      0.22935      0.18540      0.27552    
   1.021      0.22236      0.17999      0.26692    
   1.025      0.21565      0.17484      0.25931    
   1.028      0.20921      0.16967      0.25237    
   1.031      0.20304      0.16456      0.24565    
   1.033      0.19713      0.15971      0.23915    
   1.036      0.19146      0.15511      0.23286    
   1.039      0.18603      0.15012      0.22680    
   1.043      0.18083      0.14488      0.22065    
   1.046      0.17586      0.13992      0.21498    
   1.049      0.17110      0.13524      0.20981    
   1.051      0.16655      0.13144      0.20464    
   1.054      0.16219      0.12839      0.19965    
   1.058      0.15804      0.12504      0.19478    
   1.061      0.15407      0.12247      0.19014    
   1.064      0.15028      0.11979      0.18569    
   1.067      0.14666      0.11601      0.18143    
   1.069      0.14321      0.11236      0.17735    
   1.072      0.13993      0.10887      0.17345    
   1.076      0.13680      0.10553      0.16973    
   1.079      0.13381      0.10285      0.16617    
   1.082      0.13097      0.10043      0.16278    
   1.084      0.12827      0.97828E-01  0.15954    
   1.087      0.12570      0.95379E-01  0.15646    
   1.090      0.12326      0.93075E-01  0.15352    
   1.094      0.12093      0.90911E-01  0.15073    
   1.097      0.11872      0.88877E-01  0.14807    
   1.100      0.11662      0.86965E-01  0.14555    
   1.102      0.11462      0.85227E-01  0.14314    
   1.105      0.11272      0.83762E-01  0.14086    
   1.109      0.11091      0.82383E-01  0.13885    
   1.112      0.10919      0.81086E-01  0.13725    
   1.115      0.10756      0.79865E-01  0.13572    
   1.118      0.10600      0.78714E-01  0.13427    
   1.120      0.10452      0.77667E-01  0.13289    
   1.123      0.10310      0.76879E-01  0.13158    
   1.127      0.10175      0.76134E-01  0.13021    
   1.130      0.10046      0.75121E-01  0.12852    
