#
# Lane-Emden Polytrope
# n=3
#
  xi            theta         r/R*           rho/rho*
  0.00000       1.00000       0.00000        54.1800    
  0.172856E-01  0.999950      0.250627E-02   54.1719    
  0.345711E-01  0.999801      0.501253E-02   54.1477    
  0.518567E-01  0.999552      0.751880E-02   54.1072    
  0.691423E-01  0.999204      0.100251E-01   54.0507    
  0.864278E-01  0.998756      0.125313E-01   53.9781    
  0.103713      0.998210      0.150376E-01   53.8896    
  0.120999      0.997565      0.175439E-01   53.7852    
  0.138285      0.996822      0.200501E-01   53.6651    
  0.155570      0.995981      0.225564E-01   53.5294    
  0.172856      0.995042      0.250627E-01   53.3782    
  0.190141      0.994007      0.275689E-01   53.2118    
  0.207427      0.992875      0.300752E-01   53.0301    
  0.224712      0.991647      0.325815E-01   52.8337    
  0.241998      0.990325      0.350877E-01   52.6225    
  0.259283      0.988907      0.375940E-01   52.3969    
  0.276569      0.987396      0.401003E-01   52.1571    
  0.293855      0.985792      0.426065E-01   51.9034    
  0.311140      0.984096      0.451128E-01   51.6359    
  0.328426      0.982309      0.476190E-01   51.3551    
  0.345711      0.980432      0.501253E-01   51.0612    
  0.362997      0.978465      0.526316E-01   50.7545    
  0.380282      0.976410      0.551378E-01   50.4354    
  0.397568      0.974267      0.576441E-01   50.1041    
  0.414854      0.972038      0.601504E-01   49.7610    
  0.432139      0.969724      0.626566E-01   49.4065    
  0.449425      0.967326      0.651629E-01   49.0409    
  0.466710      0.964846      0.676692E-01   48.6645    
  0.483996      0.962284      0.701754E-01   48.2779    
  0.501281      0.959641      0.726817E-01   47.8812    
  0.518567      0.956919      0.751880E-01   47.4750    
  0.535852      0.954120      0.776942E-01   47.0596    
  0.553138      0.951244      0.802005E-01   46.6353    
  0.570424      0.948293      0.827068E-01   46.2026    
  0.587709      0.945269      0.852130E-01   45.7619    
  0.604995      0.942172      0.877193E-01   45.3137    
  0.622280      0.939004      0.902256E-01   44.8581    
  0.639566      0.935767      0.927318E-01   44.3958    
  0.656851      0.932461      0.952381E-01   43.9270    
  0.674137      0.929090      0.977444E-01   43.4522    
  0.691423      0.925653      0.100251       42.9718    
  0.708708      0.922152      0.102757       42.4861    
  0.725994      0.918590      0.105263       41.9956    
  0.743279      0.914967      0.107769       41.5007    
  0.760565      0.911285      0.110276       41.0017    
  0.777850      0.907546      0.112782       40.4991    
  0.795136      0.903751      0.115288       39.9931    
  0.812422      0.899901      0.117794       39.4842    
  0.829707      0.895999      0.120301       38.9728    
  0.846993      0.892045      0.122807       38.4592    
  0.864278      0.888042      0.125313       37.9437    
  0.881564      0.883991      0.127820       37.4267    
  0.898849      0.879893      0.130326       36.9087    
  0.916135      0.875750      0.132832       36.3897    
  0.933421      0.871563      0.135338       35.8703    
  0.950706      0.867334      0.137845       35.3508    
  0.967992      0.863065      0.140351       34.8313    
  0.985277      0.858757      0.142857       34.3124    
   1.00256      0.854412      0.145363       33.7941    
   1.01985      0.850031      0.147870       33.2769    
   1.03713      0.845615      0.150376       32.7610    
   1.05442      0.841167      0.152882       32.2467    
   1.07170      0.836687      0.155388       31.7342    
   1.08899      0.832177      0.157895       31.2238    
   1.10628      0.827638      0.160401       30.7157    
   1.12356      0.823072      0.162907       30.2102    
   1.14085      0.818481      0.165414       29.7074    
   1.15813      0.813865      0.167920       29.2076    
   1.17542      0.809227      0.170426       28.7111    
   1.19270      0.804566      0.172932       28.2179    
   1.20999      0.799886      0.175439       27.7283    
   1.22728      0.795186      0.177945       27.2424    
   1.24456      0.790469      0.180451       26.7605    
   1.26185      0.785736      0.182957       26.2826    
   1.27913      0.780988      0.185464       25.8090    
   1.29642      0.776225      0.187970       25.3398    
   1.31370      0.771451      0.190476       24.8750    
   1.33099      0.766664      0.192982       24.4149    
   1.34827      0.761868      0.195489       23.9595    
   1.36556      0.757063      0.197995       23.5090    
   1.38285      0.752249      0.200501       23.0635    
   1.40013      0.747429      0.203008       22.6230    
   1.41742      0.742604      0.205514       22.1876    
   1.43470      0.737773      0.208020       21.7574    
   1.45199      0.732939      0.210526       21.3326    
   1.46927      0.728103      0.213033       20.9130    
   1.48656      0.723265      0.215539       20.4989    
   1.50384      0.718427      0.218045       20.0903    
   1.52113      0.713589      0.220551       19.6872    
   1.53842      0.708752      0.223058       19.2895    
   1.55570      0.703918      0.225564       18.8975    
   1.57299      0.699086      0.228070       18.5111    
   1.59027      0.694259      0.230576       18.1303    
   1.60756      0.689437      0.233083       17.7551    
   1.62484      0.684621      0.235589       17.3855    
   1.64213      0.679811      0.238095       17.0217    
   1.65941      0.675008      0.240602       16.6635    
   1.67670      0.670213      0.243108       16.3109    
   1.69399      0.665428      0.245614       15.9640    
   1.71127      0.660651      0.248120       15.6227    
   1.72856      0.655885      0.250627       15.2871    
   1.74584      0.651130      0.253133       14.9569    
   1.76313      0.646387      0.255639       14.6324    
   1.78041      0.641656      0.258145       14.3135    
   1.79770      0.636937      0.260652       14.0000    
   1.81498      0.632232      0.263158       13.6920    
   1.83227      0.627541      0.265664       13.3895    
   1.84956      0.622864      0.268170       13.0924    
   1.86684      0.618203      0.270677       12.8006    
   1.88413      0.613557      0.273183       12.5142    
   1.90141      0.608927      0.275689       12.2330    
   1.91870      0.604313      0.278196       11.9571    
   1.93598      0.599717      0.280702       11.6864    
   1.95327      0.595138      0.283208       11.4207    
   1.97055      0.590577      0.285714       11.1602    
   1.98784      0.586035      0.288221       10.9046    
   2.00513      0.581511      0.290727       10.6540    
   2.02241      0.577006      0.293233       10.4083    
   2.03970      0.572521      0.295739       10.1675    
   2.05698      0.568055      0.298246       9.93141    
   2.07427      0.563610      0.300752       9.70006    
   2.09155      0.559185      0.303258       9.47337    
   2.10884      0.554780      0.305764       9.25129    
   2.12612      0.550397      0.308271       9.03376    
   2.14341      0.546035      0.310777       8.82067    
   2.16070      0.541695      0.313283       8.61197    
   2.17798      0.537376      0.315789       8.40765    
   2.19527      0.533079      0.318296       8.20757    
   2.21255      0.528805      0.320802       8.01171    
   2.22984      0.524553      0.323308       7.82002    
   2.24712      0.520323      0.325815       7.63234    
   2.26441      0.516117      0.328321       7.44872    
   2.28169      0.511933      0.330827       7.26906    
   2.29898      0.507772      0.333333       7.09325    
   2.31627      0.503635      0.335840       6.92128    
   2.33355      0.499521      0.338346       6.75305    
   2.35084      0.495431      0.340852       6.58850    
   2.36812      0.491364      0.343358       6.42759    
   2.38541      0.487321      0.345865       6.27025    
   2.40269      0.483302      0.348371       6.11638    
   2.41998      0.479307      0.350877       5.96598    
   2.43726      0.475336      0.353383       5.81888    
   2.45455      0.471389      0.355890       5.67514    
   2.47184      0.467466      0.358396       5.53465    
   2.48912      0.463567      0.360902       5.39730    
   2.50641      0.459693      0.363409       5.26309    
   2.52369      0.455842      0.365915       5.13195    
   2.54098      0.452016      0.368421       5.00381    
   2.55826      0.448214      0.370927       4.87862    
   2.57555      0.444437      0.373434       4.75630    
   2.59283      0.440684      0.375940       4.63682    
   2.61012      0.436955      0.378446       4.52011    
   2.62741      0.433250      0.380952       4.40612    
   2.64469      0.429570      0.383459       4.29478    
   2.66198      0.425914      0.385965       4.18606    
   2.67926      0.422282      0.388471       4.07988    
   2.69655      0.418675      0.390977       3.97622    
   2.71383      0.415092      0.393484       3.87499    
   2.73112      0.411532      0.395990       3.77616    
   2.74840      0.407997      0.398496       3.67968    
   2.76569      0.404486      0.401002       3.58550    
   2.78298      0.400999      0.403509       3.49356    
   2.80026      0.397536      0.406015       3.40382    
   2.81755      0.394096      0.408521       3.31623    
   2.83483      0.390680      0.411028       3.23075    
   2.85212      0.387288      0.413534       3.14733    
   2.86940      0.383920      0.416040       3.06592    
   2.88669      0.380575      0.418546       2.98649    
   2.90397      0.377254      0.421053       2.90897    
   2.92126      0.373956      0.423559       2.83335    
   2.93855      0.370681      0.426065       2.75956    
   2.95583      0.367429      0.428571       2.68758    
   2.97312      0.364201      0.431078       2.61735    
   2.99040      0.360995      0.433584       2.54885    
   3.00769      0.357813      0.436090       2.48202    
   3.02497      0.354653      0.438597       2.41685    
   3.04226      0.351516      0.441103       2.35328    
   3.05955      0.348401      0.443609       2.29127    
   3.07683      0.345309      0.446115       2.23080    
   3.09412      0.342239      0.448622       2.17183    
   3.11140      0.339191      0.451128       2.11433    
   3.12869      0.336165      0.453634       2.05824    
   3.14597      0.333162      0.456140       2.00357    
   3.16326      0.330180      0.458647       1.95025    
   3.18054      0.327219      0.461153       1.89826    
   3.19783      0.324281      0.463659       1.84758    
   3.21512      0.321364      0.466165       1.79816    
   3.23240      0.318468      0.468672       1.74999    
   3.24969      0.315593      0.471178       1.70303    
   3.26697      0.312740      0.473684       1.65725    
   3.28426      0.309907      0.476190       1.61263    
   3.30154      0.307096      0.478697       1.56913    
   3.31883      0.304305      0.481203       1.52674    
   3.33611      0.301534      0.483709       1.48542    
   3.35340      0.298784      0.486216       1.44514    
   3.37069      0.296054      0.488722       1.40590    
   3.38797      0.293345      0.491228       1.36764    
   3.40526      0.290655      0.493734       1.33037    
   3.42254      0.287985      0.496241       1.29405    
   3.43983      0.285335      0.498747       1.25865    
   3.45711      0.282705      0.501253       1.22416    
   3.47440      0.280094      0.503759       1.19055    
   3.49168      0.277502      0.506266       1.15781    
   3.50897      0.274929      0.508772       1.12590    
   3.52626      0.272376      0.511278       1.09483    
   3.54354      0.269841      0.513784       1.06454    
   3.56083      0.267326      0.516291       1.03505    
   3.57811      0.264828      0.518797       1.00631    
   3.59540      0.262350      0.521303      0.978317    
   3.61268      0.259889      0.523810      0.951054    
   3.62997      0.257447      0.526316      0.924495    
   3.64725      0.255023      0.528822      0.898624    
   3.66454      0.252617      0.531328      0.873425    
   3.68183      0.250229      0.533835      0.848887    
   3.69911      0.247858      0.536341      0.824988    
   3.71640      0.245505      0.538847      0.801712    
   3.73368      0.243169      0.541353      0.779049    
   3.75097      0.240851      0.543860      0.756976    
   3.76825      0.238549      0.546366      0.735483    
   3.78554      0.236265      0.548872      0.714558    
   3.80282      0.233997      0.551378      0.694181    
   3.82011      0.231747      0.553885      0.674341    
   3.83740      0.229512      0.556391      0.655025    
   3.85468      0.227294      0.558897      0.636220    
   3.87197      0.225093      0.561404      0.617907    
   3.88925      0.222908      0.563910      0.600087    
   3.90654      0.220738      0.566416      0.582738    
   3.92382      0.218585      0.568922      0.565850    
   3.94111      0.216447      0.571429      0.549407    
   3.95839      0.214325      0.573935      0.533409    
   3.97568      0.212219      0.576441      0.517835    
   3.99297      0.210128      0.578947      0.502679    
   4.01025      0.208052      0.581454      0.487928    
   4.02754      0.205992      0.583960      0.473574    
   4.04482      0.203946      0.586466      0.459605    
   4.06211      0.201915      0.588972      0.446012    
   4.07939      0.199899      0.591479      0.432786    
   4.09668      0.197898      0.593985      0.419917    
   4.11396      0.195911      0.596491      0.407396    
   4.13125      0.193939      0.598997      0.395214    
   4.14854      0.191981      0.601504      0.383364    
   4.16582      0.190037      0.604010      0.371835    
   4.18311      0.188107      0.606516      0.360621    
   4.20039      0.186190      0.609023      0.349713    
   4.21768      0.184288      0.611529      0.339103    
   4.23496      0.182400      0.614035      0.328784    
   4.25225      0.180524      0.616541      0.318748    
   4.26953      0.178663      0.619048      0.308988    
   4.28682      0.176814      0.621554      0.299497    
   4.30411      0.174979      0.624060      0.290268    
   4.32139      0.173157      0.626566      0.281295    
   4.33868      0.171348      0.629073      0.272570    
   4.35596      0.169552      0.631579      0.264087    
   4.37325      0.167769      0.634085      0.255841    
   4.39053      0.165998      0.636591      0.247825    
   4.40782      0.164239      0.639098      0.240033    
   4.42510      0.162494      0.641604      0.232460    
   4.44239      0.160760      0.644110      0.225099    
   4.45968      0.159039      0.646617      0.217945    
   4.47696      0.157329      0.649123      0.210993    
   4.49425      0.155632      0.651629      0.204238    
   4.51153      0.153947      0.654135      0.197674    
   4.52882      0.152273      0.656642      0.191297    
   4.54610      0.150611      0.659148      0.185102    
   4.56339      0.148961      0.661654      0.179083    
   4.58067      0.147322      0.664160      0.173237    
   4.59796      0.145694      0.666667      0.167559    
   4.61525      0.144078      0.669173      0.162044    
   4.63253      0.142473      0.671679      0.156689    
   4.64982      0.140879      0.674185      0.151488    
   4.66710      0.139296      0.676692      0.146438    
   4.68439      0.137724      0.679198      0.141536    
   4.70167      0.136162      0.681704      0.136776    
   4.71896      0.134612      0.684211      0.132156    
   4.73624      0.133072      0.686717      0.127672    
   4.75353      0.131542      0.689223      0.123320    
   4.77082      0.130023      0.691729      0.119096    
   4.78810      0.128514      0.694236      0.114998    
   4.80539      0.127015      0.696742      0.111021    
   4.82267      0.125527      0.699248      0.107164    
   4.83996      0.124048      0.701754      0.103421    
   4.85724      0.122580      0.704261      0.997920E-01
   4.87453      0.121121      0.706767      0.962719E-01
   4.89181      0.119672      0.709273      0.928580E-01
   4.90910      0.118233      0.711779      0.895482E-01
   4.92639      0.116804      0.714286      0.863391E-01
   4.94367      0.115383      0.716792      0.832281E-01
   4.96096      0.113973      0.719298      0.802130E-01
   4.97824      0.112572      0.721804      0.772905E-01
   4.99553      0.111180      0.724311      0.744585E-01
   5.01281      0.109797      0.726817      0.717148E-01
   5.03010      0.108423      0.729323      0.690567E-01
   5.04738      0.107059      0.731830      0.664816E-01
   5.06467      0.105703      0.734336      0.639882E-01
   5.08196      0.104356      0.736842      0.615729E-01
   5.09924      0.103018      0.739348      0.592350E-01
   5.11653      0.101689      0.741855      0.569714E-01
   5.13381      0.100368      0.744361      0.547803E-01
   5.15110      0.990558E-01  0.746867      0.526598E-01
   5.16838      0.977522E-01  0.749373      0.506079E-01
   5.18567      0.964570E-01  0.751880      0.486228E-01
   5.20295      0.951701E-01  0.754386      0.467026E-01
   5.22024      0.938915E-01  0.756892      0.448454E-01
   5.23753      0.926210E-01  0.759399      0.430495E-01
   5.25481      0.913587E-01  0.761905      0.413132E-01
   5.27210      0.901045E-01  0.764411      0.396349E-01
   5.28938      0.888582E-01  0.766917      0.380130E-01
   5.30667      0.876199E-01  0.769424      0.364457E-01
   5.32395      0.863894E-01  0.771930      0.349317E-01
   5.34124      0.851666E-01  0.774436      0.334693E-01
   5.35853      0.839516E-01  0.776942      0.320572E-01
   5.37581      0.827442E-01  0.779449      0.306938E-01
   5.39310      0.815443E-01  0.781955      0.293779E-01
   5.41038      0.803520E-01  0.784461      0.281079E-01
   5.42767      0.791671E-01  0.786967      0.268828E-01
   5.44495      0.779896E-01  0.789474      0.257009E-01
   5.46224      0.768194E-01  0.791980      0.245613E-01
   5.47952      0.756564E-01  0.794486      0.234626E-01
   5.49681      0.745007E-01  0.796992      0.224037E-01
   5.51409      0.733520E-01  0.799499      0.213833E-01
   5.53138      0.722105E-01  0.802005      0.204004E-01
   5.54867      0.710759E-01  0.804511      0.194539E-01
   5.56595      0.699482E-01  0.807018      0.185425E-01
   5.58324      0.688275E-01  0.809524      0.176654E-01
   5.60052      0.677135E-01  0.812030      0.168215E-01
   5.61781      0.666064E-01  0.814536      0.160098E-01
   5.63509      0.655059E-01  0.817043      0.152293E-01
   5.65238      0.644121E-01  0.819549      0.144791E-01
   5.66967      0.633248E-01  0.822055      0.137581E-01
   5.68695      0.622441E-01  0.824561      0.130657E-01
   5.70424      0.611699E-01  0.827068      0.124009E-01
   5.72152      0.601021E-01  0.829574      0.117627E-01
   5.73881      0.590407E-01  0.832080      0.111505E-01
   5.75609      0.579855E-01  0.834587      0.105633E-01
   5.77338      0.569367E-01  0.837093      0.100003E-01
   5.79066      0.558940E-01  0.839599      0.946097E-02
   5.80795      0.548575E-01  0.842105      0.894431E-02
   5.82524      0.538271E-01  0.844612      0.844975E-02
   5.84252      0.528028E-01  0.847118      0.797643E-02
   5.85981      0.517844E-01  0.849624      0.752381E-02
   5.87709      0.507720E-01  0.852130      0.709108E-02
   5.89438      0.497655E-01  0.854637      0.667769E-02
   5.91166      0.487649E-01  0.857143      0.628293E-02
   5.92895      0.477700E-01  0.859649      0.590616E-02
   5.94623      0.467810E-01  0.862155      0.554684E-02
   5.96352      0.457976E-01  0.864662      0.520435E-02
   5.98080      0.448198E-01  0.867168      0.487809E-02
   5.99809      0.438477E-01  0.869674      0.456750E-02
   6.01538      0.428811E-01  0.872180      0.427206E-02
